# Temperature : 500
mfp,kcumu,kspec
-1.000000e-03,7.564530e-01,7.564530e-01
5.169483e+00,7.911341e-01,3.468116e-02
5.344710e+00,8.226764e-01,3.154222e-02
5.525877e+00,8.412372e-01,1.856080e-02
5.713186e+00,8.673116e-01,2.607441e-02
5.906843e+00,8.981802e-01,3.086862e-02
6.107064e+00,9.141149e-01,1.593470e-02
6.314073e+00,9.487360e-01,3.462106e-02
6.528098e+00,9.720904e-01,2.335443e-02
6.749378e+00,1.016618e+00,4.452810e-02
6.978158e+00,1.042669e+00,2.605015e-02
7.214694e+00,1.071882e+00,2.921312e-02
7.459247e+00,1.088920e+00,1.703788e-02
7.712089e+00,1.119446e+00,3.052662e-02
7.973502e+00,1.164112e+00,4.466542e-02
8.243777e+00,1.175139e+00,1.102742e-02
8.523212e+00,1.202075e+00,2.693566e-02
8.812119e+00,1.229305e+00,2.723062e-02
9.110820e+00,1.263907e+00,3.460141e-02
9.419645e+00,1.291385e+00,2.747789e-02
9.738938e+00,1.354945e+00,6.356075e-02
1.006905e+01,1.390809e+00,3.586382e-02
1.041036e+01,1.431252e+00,4.044284e-02
1.076324e+01,1.452904e+00,2.165195e-02
1.112807e+01,1.463173e+00,1.026869e-02
1.150528e+01,1.483833e+00,2.066079e-02
1.189526e+01,1.515327e+00,3.149311e-02
1.229847e+01,1.524418e+00,9.091233e-03
1.271535e+01,1.543573e+00,1.915515e-02
1.314635e+01,1.564989e+00,2.141597e-02
1.359197e+01,1.576368e+00,1.137944e-02
1.405269e+01,1.576368e+00,0.000000e+00
1.452903e+01,1.576368e+00,0.000000e+00
1.502151e+01,1.601822e+00,2.545400e-02
1.553069e+01,1.606830e+00,5.007259e-03
1.605713e+01,1.606830e+00,0.000000e+00
1.660141e+01,1.640643e+00,3.381342e-02
1.716414e+01,1.645391e+00,4.748351e-03
1.774594e+01,1.666011e+00,2.061963e-02
1.834747e+01,1.672869e+00,6.857908e-03
1.896938e+01,1.675242e+00,2.373185e-03
1.961238e+01,1.680348e+00,5.106135e-03
2.027717e+01,1.688846e+00,8.497803e-03
2.096450e+01,1.698799e+00,9.953278e-03
2.167512e+01,1.706981e+00,8.181926e-03
2.240983e+01,1.706981e+00,0.000000e+00
2.316945e+01,1.715928e+00,8.946664e-03
2.395481e+01,1.715928e+00,0.000000e+00
2.476680e+01,1.727056e+00,1.112839e-02
2.560631e+01,1.740269e+00,1.321306e-02
2.647427e+01,1.740269e+00,0.000000e+00
2.737166e+01,1.756494e+00,1.622475e-02
2.829946e+01,1.762151e+00,5.656816e-03
2.925872e+01,1.762151e+00,0.000000e+00
3.025049e+01,1.762151e+00,0.000000e+00
3.127587e+01,1.775835e+00,1.368417e-02
3.233602e+01,1.786397e+00,1.056162e-02
3.343209e+01,1.786397e+00,0.000000e+00
3.456533e+01,1.786397e+00,0.000000e+00
3.573697e+01,1.789125e+00,2.728220e-03
3.694833e+01,1.804580e+00,1.545463e-02
3.820075e+01,1.804580e+00,0.000000e+00
3.949562e+01,1.804580e+00,0.000000e+00
4.083439e+01,1.811543e+00,6.963550e-03
4.221853e+01,1.814749e+00,3.206256e-03
4.364960e+01,1.814749e+00,0.000000e+00
4.512917e+01,1.840610e+00,2.586058e-02
4.665889e+01,1.840610e+00,0.000000e+00
4.824046e+01,1.840610e+00,0.000000e+00
4.987565e+01,1.840610e+00,0.000000e+00
5.156626e+01,1.840610e+00,0.000000e+00
5.331418e+01,1.840610e+00,0.000000e+00
5.512134e+01,1.840610e+00,0.000000e+00
5.698977e+01,1.840610e+00,0.000000e+00
5.892152e+01,1.862569e+00,2.195889e-02
6.091876e+01,1.862569e+00,0.000000e+00
6.298369e+01,1.868149e+00,5.580211e-03
6.511862e+01,1.885753e+00,1.760399e-02
6.732592e+01,1.885753e+00,0.000000e+00
6.960803e+01,1.885753e+00,0.000000e+00
7.196750e+01,1.885753e+00,0.000000e+00
7.440695e+01,1.907756e+00,2.200252e-02
7.692909e+01,1.907756e+00,0.000000e+00
7.953672e+01,1.907756e+00,0.000000e+00
8.223274e+01,1.907756e+00,0.000000e+00
8.502014e+01,1.907756e+00,0.000000e+00
8.790203e+01,1.907756e+00,0.000000e+00
9.088161e+01,1.907756e+00,0.000000e+00
9.396218e+01,1.907756e+00,0.000000e+00
9.714717e+01,1.907756e+00,0.000000e+00
1.004401e+02,1.907756e+00,0.000000e+00
1.038447e+02,1.907756e+00,0.000000e+00
1.073647e+02,1.907756e+00,0.000000e+00
1.110040e+02,1.907756e+00,0.000000e+00
1.147666e+02,1.907756e+00,0.000000e+00
1.186568e+02,1.907756e+00,0.000000e+00
1.226789e+02,1.907756e+00,0.000000e+00
1.268372e+02,1.907756e+00,0.000000e+00
1.311366e+02,1.907756e+00,0.000000e+00
1.355817e+02,1.962413e+00,5.465748e-02
1.401774e+02,1.962413e+00,0.000000e+00
1.449289e+02,1.962413e+00,0.000000e+00
1.498415e+02,1.962413e+00,0.000000e+00
1.549206e+02,1.962413e+00,0.000000e+00
1.601719e+02,1.962413e+00,0.000000e+00
1.656012e+02,1.994827e+00,3.241415e-02
1.712145e+02,1.994827e+00,0.000000e+00
1.770181e+02,1.994827e+00,0.000000e+00
1.830184e+02,1.994827e+00,0.000000e+00
1.892221e+02,1.994827e+00,0.000000e+00
1.956360e+02,1.994827e+00,0.000000e+00
2.022674e+02,1.994827e+00,0.000000e+00
2.091236e+02,1.994827e+00,0.000000e+00
2.162121e+02,1.994827e+00,0.000000e+00
2.235410e+02,1.994827e+00,0.000000e+00
2.311183e+02,1.994827e+00,0.000000e+00
2.389524e+02,1.994827e+00,0.000000e+00
2.470520e+02,1.994827e+00,0.000000e+00
2.554262e+02,1.994827e+00,0.000000e+00
2.640843e+02,1.994827e+00,0.000000e+00
2.730358e+02,1.994827e+00,0.000000e+00
2.822908e+02,1.994827e+00,0.000000e+00
2.918595e+02,1.994827e+00,0.000000e+00
3.017525e+02,1.994827e+00,0.000000e+00
3.119809e+02,1.994827e+00,0.000000e+00
3.225559e+02,1.994827e+00,0.000000e+00
3.334895e+02,1.994827e+00,0.000000e+00
3.447936e+02,2.067539e+00,7.271202e-02
3.564809e+02,2.165936e+00,9.839690e-02
3.685644e+02,2.165936e+00,0.000000e+00
3.810574e+02,2.165936e+00,0.000000e+00
3.939740e+02,2.165936e+00,0.000000e+00
4.073283e+02,2.165936e+00,0.000000e+00
4.211353e+02,2.165936e+00,0.000000e+00
4.354104e+02,2.165936e+00,0.000000e+00
4.501693e+02,2.165936e+00,0.000000e+00
4.654285e+02,2.165936e+00,0.000000e+00
4.812049e+02,2.165936e+00,0.000000e+00
4.975160e+02,2.165936e+00,0.000000e+00
5.143801e+02,2.165936e+00,0.000000e+00
5.318158e+02,2.165936e+00,0.000000e+00
5.498425e+02,2.165936e+00,0.000000e+00
5.684803e+02,2.165936e+00,0.000000e+00
5.877498e+02,2.165936e+00,0.000000e+00
6.076725e+02,2.165936e+00,0.000000e+00
6.282705e+02,2.229809e+00,6.387331e-02
6.495667e+02,2.229809e+00,0.000000e+00
6.715847e+02,2.229809e+00,0.000000e+00
6.943491e+02,2.229809e+00,0.000000e+00
7.178852e+02,2.305127e+00,7.531727e-02
7.422190e+02,2.305127e+00,0.000000e+00
